-6004.844,1,55368
-5988.580,1,51184
-5972.338,1,50110
-5956.118,1,50131
-5939.919,1,50167
-5923.741,1,50078
-5907.584,1,50052
-5891.449,1,50014
-5875.335,1,50080
-5859.242,1,50020
-5843.170,1,50015
-5827.119,1,50047
-5811.090,1,50065
-5795.081,1,50139
-5779.093,1,50027
-5763.126,1,50114
-5747.180,1,50069
-5731.255,1,49984
-5715.351,1,50103
-5699.467,1,50083
-5683.604,1,50056
-5667.762,1,50065
-5651.940,1,50081
-5636.139,1,50106
-5620.359,1,50043
-5604.599,1,50037
-5588.859,1,50019
-5573.140,1,49978
-5557.441,1,50004
-5541.763,1,50085
-5526.105,1,50076
-5510.467,1,50175
-5494.849,1,50082
-5479.252,1,50095
-5463.674,1,50112
-5448.117,1,50044
-5432.580,1,50149
-5417.063,1,50192
-5401.566,1,50120
-5386.089,1,50071
-5370.632,1,50153
-5355.194,1,50120
-5339.777,1,50199
-5324.379,1,50141
-5309.001,1,50143
-5293.643,1,50144
-5278.305,1,50184
-5262.986,1,50179
-5247.687,1,50204
-5232.407,1,50172
-5217.147,1,50253
-5201.906,1,50243
-5186.685,1,50161
-5171.483,1,50248
-5156.301,1,50246
-5141.138,1,50180
-5125.994,1,50241
-5110.870,1,50141
-5095.764,1,50245
-5080.678,1,50227
-5065.612,1,50292
-5050.564,1,50284
-5035.535,1,50304
-5020.526,1,50301
-5005.535,1,50190
-4990.564,1,50301
-4975.611,1,50262
-4960.677,1,50281
-4945.763,1,50288
-4930.867,1,50307
-4915.989,1,50337
-4901.131,1,50287
-4886.291,1,50267
-4871.470,1,50328
-4856.668,1,50331
-4841.884,1,50393
-4827.119,1,50293
-4812.373,1,50245
-4797.645,1,50443
-4782.935,1,50334
-4768.244,1,50335
-4753.572,1,50389
-4738.917,1,50370
-4724.281,1,50448
-4709.664,1,50408
-4695.065,1,50541
-4680.483,1,50551
-4665.921,1,50440
-4651.376,1,50548
-4636.849,1,50544
-4622.341,1,50527
-4607.851,1,50520
-4593.378,1,50517
-4578.924,1,50567
-4564.488,1,50468
-4550.069,1,50666
-4535.669,1,50592
-4521.286,1,50502
-4506.921,1,50525
-4492.575,1,50591
-4478.245,1,50547
-4463.934,1,50667
-4449.640,1,50530
-4435.364,1,50659
-4421.106,1,50658
-4406.865,1,50650
-4392.642,1,50640
-4378.436,1,50549
-4364.248,1,50768
-4350.077,1,50706
-4335.924,1,50647
-4321.788,1,50661
-4307.670,1,50672
-4293.569,1,50703
-4279.485,1,50713
-4265.418,1,50709
-4251.369,1,50792
-4237.337,1,50865
-4223.323,1,50855
-4209.325,1,50856
-4195.344,1,50924
-4181.381,1,50918
-4167.435,1,50868
-4153.505,1,50819
-4139.593,1,50822
-4125.698,1,50831
-4111.819,1,50876
-4097.958,1,50890
-4084.113,1,50869
-4070.286,1,50860
-4056.475,1,50838
-4042.681,1,50922
-4028.903,1,50793
-4015.143,1,50949
-4001.399,1,50924
-3987.671,1,50951
-3973.961,1,50976
-3960.267,1,50925
-3946.589,1,50923
-3932.928,1,50981
-3919.284,1,50982
-3905.656,1,51065
-3892.045,1,51095
-3878.450,1,51075
-3864.871,1,51032
-3851.309,1,50983
-3837.763,1,50957
-3824.233,1,51094
-3810.720,1,51118
-3797.223,1,51151
-3783.742,1,51156
-3770.277,1,51273
-3756.829,1,51219
-3743.396,1,51254
-3729.980,1,51261
-3716.580,1,51287
-3703.196,1,51256
-3689.827,1,51395
-3676.475,1,51299
-3663.139,1,51467
-3649.819,1,51432
-3636.514,1,51375
-3623.226,1,51309
-3609.953,1,51433
-3596.696,1,51422
-3583.455,1,51435
-3570.230,1,51387
-3557.021,1,51416
-3543.827,1,51471
-3530.649,1,51570
-3517.486,1,51621
-3504.339,1,51629
-3491.208,1,51547
-3478.092,1,51523
-3464.992,1,51585
-3451.907,1,51505
-3438.838,1,51725
-3425.784,1,51698
-3412.746,1,51774
-3399.723,1,51677
-3386.716,1,51725
-3373.723,1,51850
-3360.746,1,51858
-3347.785,1,51869
-3334.839,1,51835
-3321.907,1,51837
-3308.992,1,51842
-3296.091,1,51893
-3283.205,1,51933
-3270.335,1,51859
-3257.480,1,51926
-3244.639,1,51984
-3231.814,1,52076
-3219.004,1,52068
-3206.209,1,52208
-3193.429,1,52142
-3180.663,1,52057
-3167.913,1,52197
-3155.178,1,52179
-3142.457,1,52304
-3129.751,1,52239
-3117.061,1,52199
-3104.384,1,52191
-3091.723,1,52311
-3079.076,1,52397
-3066.445,1,52412
-3053.827,1,52460
-3041.225,1,52638
-3028.637,1,52605
-3016.064,1,52695
-3003.505,1,52748
-2990.961,1,52887
-2978.431,1,52918
-2965.916,1,52932
-2953.415,1,52905
-2940.929,1,52936
-2928.457,1,53000
-2916.000,1,53072
-2903.557,1,52933
-2891.128,1,53042
-2878.714,1,53129
-2866.314,1,53157
-2853.928,1,53114
-2841.557,1,53157
-2829.200,1,53152
-2816.857,1,53228
-2804.528,1,53166
-2792.213,1,53282
-2779.913,1,53438
-2767.627,1,53335
-2755.354,1,53406
-2743.096,1,53221
-2730.852,1,53390
-2718.622,1,53357
-2706.405,1,53351
-2694.203,1,53480
-2682.015,1,53393
-2669.841,1,53398
-2657.680,1,53433
-2645.534,1,53445
-2633.401,1,53431
-2621.282,1,53527
-2609.177,1,53654
-2597.085,1,53601
-2585.008,1,53489
-2572.944,1,53461
-2560.894,1,53603
-2548.857,1,53706
-2536.835,1,53682
-2524.825,1,53917
-2512.830,1,53807
-2500.848,1,53884
-2488.879,1,53871
-2476.925,1,53735
-2464.983,1,53845
-2453.055,1,53986
-2441.141,1,53992
-2429.240,1,54163
-2417.353,1,54143
-2405.479,1,54086
-2393.618,1,54146
-2381.771,1,54134
-2369.937,1,54240
-2358.116,1,54313
-2346.309,1,54307
-2334.515,1,54368
-2322.734,1,54343
-2310.966,1,54380
-2299.212,1,54405
-2287.471,1,54334
-2275.742,1,54355
-2264.028,1,54474
-2252.326,1,54489
-2240.637,1,54458
-2228.961,1,54475
-2217.299,1,54598
-2205.649,1,54674
-2194.013,1,54503
-2182.389,1,54751
-2170.778,1,54793
-2159.181,1,54719
-2147.596,1,54668
-2136.024,1,54608
-2124.465,1,54882
-2112.919,1,54792
-2101.386,1,54899
-2089.865,1,54832
-2078.358,1,55230
-2066.863,1,56407
-2055.381,1,56901
-2043.911,1,55938
-2032.455,1,55320
-2021.011,1,55118
-2009.579,1,55137
-1998.160,1,55191
-1986.754,1,55281
-1975.361,1,55348
-1963.980,1,55235
-1952.612,1,55313
-1941.256,1,55267
-1929.912,1,55277
-1918.582,1,55299
-1907.263,1,55323
-1895.957,1,55557
-1884.664,1,55575
-1873.383,1,55663
-1862.114,1,55643
-1850.858,1,55532
-1839.614,1,55406
-1828.383,1,55630
-1817.163,1,55847
-1805.956,1,55630
-1794.762,1,55745
-1783.579,1,55993
-1772.409,1,55903
-1761.251,1,55953
-1750.105,1,55932
-1738.972,1,56085
-1727.850,1,56026
-1716.741,1,55937
-1705.644,1,55934
-1694.559,1,56070
-1683.486,1,56268
-1672.425,1,56239
-1661.376,1,56323
-1650.339,1,56366
-1639.314,1,56386
-1628.301,1,56315
-1617.300,1,56321
-1606.311,1,56453
-1595.334,1,56391
-1584.368,1,56557
-1573.415,1,56541
-1562.473,1,56672
-1551.544,1,56595
-1540.626,1,56694
-1529.720,1,56754
-1518.825,1,56867
-1507.943,1,56832
-1497.072,1,56938
-1486.213,1,56981
-1475.366,1,56775
-1464.530,1,56929
-1453.706,1,56939
-1442.894,1,57028
-1432.093,1,57003
-1421.304,1,57169
-1410.526,1,57252
-1399.761,1,57185
-1389.006,1,57131
-1378.263,1,57146
-1367.532,1,57433
-1356.812,1,57488
-1346.104,1,57689
-1335.407,1,58023
-1324.722,1,57987
-1314.048,1,57805
-1303.385,1,57859
-1292.734,1,57822
-1282.094,1,57906
-1271.465,1,57831
-1260.848,1,58102
-1250.243,1,58236
-1239.648,1,58354
-1229.065,1,58158
-1218.493,1,58318
-1207.932,1,58425
-1197.383,1,58552
-1186.844,1,58873
-1176.317,1,58861
-1165.801,1,58427
-1155.296,1,58392
-1144.803,1,58585
-1134.320,1,58662
-1123.849,1,58622
-1113.389,1,58692
-1102.939,1,58571
-1092.501,1,58547
-1082.074,1,58768
-1071.658,1,58886
-1061.253,1,58865
-1050.858,1,58937
-1040.475,1,59257
-1030.103,1,59276
-1019.742,1,59061
-1009.391,1,59069
-999.052,1,59116
-988.723,1,59371
-978.405,1,59378
-968.098,1,59312
-957.802,1,59511
-947.517,1,59615
-937.242,1,59525
-926.979,1,59796
-916.726,1,59886
-906.483,1,59834
-896.252,1,59647
-886.031,1,59580
-875.821,1,59768
-865.621,1,59625
-855.432,1,59739
-845.254,1,59832
-835.087,1,59909
-824.930,1,59946
-814.783,1,60057
-804.648,1,60216
-794.522,1,60163
-784.408,1,60220
-774.304,1,60417
-764.210,1,60459
-754.127,1,60453
-744.054,1,60521
-733.992,1,60609
-723.940,1,60676
-713.899,1,60491
-703.868,1,60632
-693.847,1,60859
-683.837,1,60902
-673.837,1,60758
-663.848,1,60702
-653.869,1,60880
-643.900,1,60706
-633.941,1,60958
-623.993,1,61387
-614.055,1,61273
-604.127,1,61499
-594.210,1,61500
-584.303,1,61801
-574.405,1,61929
-564.519,1,62126
-554.642,1,62322
-544.775,1,62384
-534.919,1,62956
-525.073,1,62978
-515.236,1,63500
-505.410,1,62994
-495.594,1,62903
-485.788,1,63012
-475.992,1,62895
-466.206,1,63177
-456.431,1,63157
-446.665,1,63325
-436.909,1,63614
-427.163,1,64069
-417.427,1,64354
-407.701,1,64958
-397.985,1,65689
-388.279,1,65817
-378.582,1,66069
-368.896,1,66505
-359.219,1,66924
-349.553,1,67455
-339.896,1,68205
-330.249,1,68673
-320.611,1,69203
-310.984,1,69777
-301.366,1,70628
-291.758,1,71673
-282.160,1,72350
-272.572,1,73266
-262.993,1,74322
-253.424,1,75274
-243.864,1,76448
-234.315,1,78347
-224.775,1,79528
-215.244,1,81522
-205.723,1,83913
-196.212,1,86314
-186.711,1,89514
-177.219,1,92357
-167.736,1,95072
-158.263,1,99537
-148.800,1,104214
-139.346,1,110290
-129.902,1,117648
-120.467,1,126110
-111.042,1,135401
-101.626,1,144328
-92.219,1,158766
-82.822,1,173573
-73.435,1,190902
-64.057,1,214450
-54.688,1,247411
-45.329,1,293500
-35.979,1,359706
-26.638,1,2371286
-17.307,1,4177557
-7.985,1,4893238
1.328,1,6524411
10.631,1,6521887
19.925,1,6518115
29.210,1,6515308
38.486,1,6512813
47.752,1,6447072
57.009,1,4845000
66.257,1,4208925
75.496,1,3374849
84.725,1,1831384
93.945,1,354580
103.156,1,298773
112.358,1,404446
121.551,1,497695
130.735,1,523796
139.910,1,502962
149.075,1,473786
158.232,1,454227
167.379,1,443409
176.517,1,432388
185.647,1,416943
194.767,1,401948
203.878,1,386046
212.981,1,370675
222.074,1,356064
231.158,1,339726
240.234,1,322460
249.300,1,306075
258.358,1,291250
267.406,1,280130
276.446,1,271181
285.477,1,264374
294.498,1,258682
303.512,1,252190
312.516,1,245783
321.511,1,238339
330.498,1,231598
339.475,1,227094
348.444,1,223664
357.404,1,222293
366.356,1,222292
375.298,1,223881
384.232,1,226181
393.157,1,228155
402.073,1,229831
410.981,1,231507
419.880,1,233456
428.770,1,235006
437.652,1,236921
446.525,1,237760
455.389,1,241016
464.245,1,242646
473.092,1,245642
481.930,1,247653
490.760,1,250536
499.581,1,252215
508.394,1,254340
517.198,1,258279
525.994,1,261257
534.781,1,264579
543.559,1,267388
552.329,1,270713
561.091,1,274094
569.844,1,277657
578.588,1,280632
587.324,1,283254
596.052,1,286530
604.771,1,288980
613.482,1,290907
622.184,1,293223
630.878,1,293991
639.564,1,295809
648.241,1,298007
656.910,1,301204
665.570,1,304089
674.223,1,179521
682.866,1,310934
691.502,1,316724
700.129,1,321724
708.748,1,326579
717.359,1,331850
725.961,1,336949
734.555,1,342066
743.141,1,347457
751.719,1,352285
760.288,1,357320
768.849,1,362383
777.402,1,367667
785.947,1,373251
794.484,1,379715
803.012,1,389768
811.533,1,401513
820.045,1,416140
828.549,1,432059
837.045,1,446045
845.533,1,457572
854.013,1,470540
862.484,1,485185
870.948,1,496174
879.404,1,498744
887.851,1,489768
896.291,1,481603
904.722,1,477973
913.146,1,478318
921.561,1,481019
929.969,1,484039
938.368,1,489916
946.760,1,495561
955.143,1,500802
963.519,1,505827
971.887,1,510852
980.246,1,516985
988.598,1,523467
996.942,1,531615
1005.278,1,541796
1013.607,1,550557
1021.927,1,558420
1030.239,1,564361
1038.544,1,571766
1046.841,1,582332
1055.130,1,594250
1063.411,1,604436
1071.685,1,614305
1079.950,1,624325
1088.208,1,631471
1096.458,1,637815
1104.701,1,642197
1112.935,1,646198
1121.162,1,651600
1129.381,1,658304
1137.593,1,669483
1145.796,1,681927
1153.992,1,696608
1162.181,1,704017
1170.362,1,707673
1178.535,1,702292
1186.700,1,697275
1194.858,1,693578
1203.008,1,694610
1211.150,1,699606
1219.285,1,704453
1227.413,1,710426
1235.533,1,715706
1243.645,1,723413
1251.749,1,734524
1259.846,1,747680
1267.936,1,759795
1276.018,1,769469
1284.093,1,776551
1292.160,1,785196
1300.219,1,798834
1308.271,1,810921
1316.316,1,817654
1324.353,1,811627
1332.382,1,801691
1340.404,1,792982
1348.419,1,785792
1356.426,1,782493
1364.426,1,779007
1372.419,1,781148
1380.404,1,782277
1388.382,1,784964
1396.352,1,787343
1404.315,1,790162
1412.271,1,792648
1420.219,1,796067
1428.160,1,797874
1436.094,1,799347
1444.020,1,800191
1451.939,1,805299
1459.851,1,813624
1467.755,1,826425
1475.652,1,837192
1483.542,1,848212
1491.425,1,855745
1499.300,1,854507
1507.168,1,838564
1515.029,1,817246
1522.883,1,799551
1530.730,1,791617
1538.569,1,787371
1546.401,1,785566
1554.226,1,784120
1562.044,1,781923
1569.855,1,779770
1577.658,1,778088
1585.455,1,775472
1593.244,1,773888
1601.026,1,773524
1608.802,1,770220
1616.570,1,769499
1624.330,1,769072
1632.084,1,766888
1639.831,1,765550
1647.571,1,764590
1655.303,1,761391
1663.029,1,759100
1670.748,1,754050
1678.459,1,750167
1686.164,1,743471
1693.861,1,736975
1701.552,1,730483
1709.236,1,723468
1716.912,1,717074
1724.582,1,711613
1732.245,1,705059
1739.901,1,699897
1747.549,1,693192
1755.191,1,686454
1762.826,1,681125
1770.455,1,675494
1778.076,1,670370
1785.690,1,664682
1793.298,1,660107
1800.898,1,654697
1808.492,1,649959
1816.079,1,643951
1823.659,1,638176
1831.232,1,634148
1838.799,1,628167
1846.358,1,624112
1853.911,1,618344
1861.457,1,612808
1868.997,1,606043
1876.529,1,601408
1884.055,1,597511
1891.574,1,592913
1899.086,1,587397
1906.591,1,583264
1914.090,1,578039
1921.582,1,572894
1929.067,1,568930
1936.546,1,563224
1944.018,1,558335
1951.483,1,552993
1958.942,1,549447
1966.394,1,542900
1973.839,1,539330
1981.278,1,535204
1988.710,1,529583
1996.135,1,525108
2003.554,1,521275
2010.966,1,515948
2018.371,1,512198
2025.770,1,507710
2033.162,1,502804
2040.548,1,499545
2047.927,1,494289
2055.300,1,490182
2062.666,1,485578
2070.026,1,482075
2077.379,1,477817
2084.725,1,474114
2092.065,1,469431
2099.398,1,465097
2106.725,1,461856
2114.046,1,457615
2121.360,1,454084
2128.667,1,448587
2135.968,1,445886
2143.263,1,441469
2150.551,1,437000
2157.833,1,434347
2165.108,1,429749
2172.377,1,427099
2179.639,1,421865
2186.895,1,418767
2194.145,1,414870
2201.388,1,411470
2208.625,1,407459
2215.856,1,403327
2223.080,1,399891
2230.298,1,396661
2237.509,1,393550
2244.714,1,390164
2251.913,1,386474
2259.105,1,382854
2266.292,1,379094
2273.471,1,375846
2280.645,1,372840
2287.812,1,370061
2294.973,1,366266
2302.128,1,363755
2309.276,1,360161
2316.419,1,356853
2323.555,1,354062
2330.684,1,350515
2337.808,1,347685
2344.925,1,343887
2352.036,1,341583
2359.141,1,338845
2366.240,1,336324
2373.332,1,333906
2380.418,1,331516
2387.498,1,328594
2394.572,1,326446
2401.640,1,324688
2408.702,1,321665
2415.757,1,319315
2422.807,1,317083
2429.850,1,314389
2436.887,1,313519
2443.918,1,310894
2450.943,1,308588
2457.962,1,306224
2464.975,1,304850
2471.981,1,302393
2478.982,1,299703
2485.976,1,299152
2492.965,1,296396
2499.947,1,294601
2506.924,1,293094
2513.894,1,292624
2520.858,1,290564
2527.817,1,288895
2534.769,1,287417
2541.715,1,286004
2548.656,1,283824
2555.590,1,282390
2562.519,1,280784
2569.441,1,279606
2576.357,1,277924
2583.268,1,277728
2590.173,1,276492
2597.071,1,275337
2603.964,1,274373
2610.851,1,272599
2617.731,1,270339
2624.606,1,268453
2631.475,1,267112
2638.339,1,265219
2645.196,1,263982
2652.047,1,262266
2658.893,1,260878
2665.733,1,259285
2672.566,1,258361
2679.394,1,257026
2686.217,1,255745
2693.033,1,255790
2699.843,1,256029
2706.648,1,257391
2713.447,1,258521
2720.240,1,259910
2727.027,1,260079
2733.809,1,259475
2740.584,1,258720
2747.354,1,258892
2754.119,1,258576
2760.877,1,258678
2767.630,1,259661
2774.377,1,260476
2781.118,1,260380
2787.853,1,261879
2794.583,1,262151
2801.307,1,262816
2808.025,1,264682
2814.738,1,268051
2821.445,1,271352
2828.146,1,275961
2834.842,1,281487
2841.532,1,287905
2848.216,1,293701
2854.894,1,300106
2861.567,1,306513
2868.235,1,311510
2874.896,1,319763
2881.552,1,328880
2888.203,1,344305
2894.848,1,364154
2901.487,1,385675
2908.121,1,402362
2914.749,1,410060
2921.371,1,412183
2927.988,1,419125
2934.599,1,429636
2941.205,1,440209
2947.805,1,442493
2954.400,1,436468
2960.989,1,429513
2967.572,1,422498
2974.150,1,417202
2980.723,1,403999
2987.290,1,381953
2993.851,1,353006
3000.407,1,326081
3006.958,1,304831
3013.503,1,289633
3020.042,1,279046
3026.576,1,274353
3033.105,1,272078
3039.628,1,273295
3046.146,1,274748
3052.658,1,278850
3059.165,1,282241
3065.666,1,286666
3072.162,1,291558
3078.653,1,296744
3085.138,1,303195
3091.617,1,310045
3098.092,1,317620
3104.561,1,326267
3111.024,1,335366
3117.482,1,345024
3123.935,1,355999
3130.383,1,366932
3136.825,1,378538
3143.261,1,390203
3149.693,1,402565
3156.119,1,415152
3162.539,1,427482
3168.955,1,441434
3175.365,1,454514
3181.770,1,470274
3188.169,1,483033
3194.563,1,496027
3200.952,1,508534
3207.336,1,518695
3213.714,1,529386
3220.087,1,537945
3226.455,1,546470
3232.817,1,554550
3239.175,1,561600
3245.527,1,567666
3251.873,1,572680
3258.215,1,575569
3264.551,1,575795
3270.882,1,575345
3277.208,1,575451
3283.529,1,575503
3289.844,1,575161
3296.155,1,575075
3302.460,1,575753
3308.760,1,577266
3315.054,1,577625
3321.344,1,576528
3327.628,1,576761
3333.908,1,576260
3340.182,1,577040
3346.451,1,578633
3352.715,1,580158
3358.973,1,583049
3365.227,1,586977
3371.475,1,589945
3377.719,1,593361
3383.957,1,596257
3390.190,1,598835
3396.418,1,601303
3402.641,1,604301
3408.859,1,604965
3415.072,1,605983
3421.279,1,607414
3427.482,1,607636
3433.680,1,606690
3439.872,1,605343
3446.060,1,601466
3452.242,1,597980
3458.420,1,593215
3464.592,1,585384
3470.760,1,577493
3476.922,1,567698
3483.080,1,559475
3489.232,1,548829
3495.379,1,537423
3501.522,1,524971
3507.659,1,511581
3513.792,1,499997
3519.919,1,487225
3526.042,1,473059
3532.159,1,458995
3538.272,1,444114
3544.380,1,431324
3550.482,1,416764
3556.580,1,402631
3562.673,1,389688
3568.761,1,377248
3574.844,1,364804
3580.922,1,353089
3586.996,1,341502
3593.064,1,330503
3599.127,1,320336
3605.186,1,309119
3611.240,1,299718
3617.288,1,290200
3623.332,1,279988
3629.371,1,271365
3635.406,1,262899
3641.435,1,254023
3647.459,1,244942
3653.479,1,236382
3659.494,1,227084
3665.504,1,218064
3671.509,1,208071
3677.510,1,197044
3683.505,1,186663
3689.496,1,175695
3695.482,1,166148
3701.463,1,156917
3707.440,1,149253
3713.411,1,142008
3719.378,1,136687
3725.340,1,131417
3731.297,1,126886
3737.250,1,123321
3743.198,1,119840
3749.141,1,116985
3755.079,1,114327
3761.013,1,112644
3766.942,1,110698
3772.866,1,109082
3778.785,1,107361
3784.700,1,106796
3790.610,1,105709
3796.515,1,104740
3802.416,1,104157
3808.312,1,102814
3814.203,1,102406
3820.089,1,101459
3825.971,1,100882
3831.848,1,99753
3837.721,1,99403
3843.589,1,98386
3849.452,1,98189
3855.310,1,97410
3861.164,1,96964
3867.014,1,96915
3872.858,1,96629
3878.698,1,96393
3884.534,1,96336
3890.365,1,95672
3896.191,1,95131
3902.012,1,94976
3907.830,1,94246
3913.642,1,93997
3919.450,1,93579
3925.253,1,93021
3931.052,1,92971
3936.846,1,92926
3942.635,1,92803
3948.420,1,92614
3954.201,1,92625
3959.977,1,92081
3965.748,1,92156
3971.515,1,91741
3977.277,1,91146
3983.035,1,91223
3988.788,1,90859
3994.537,1,90570
4000.281,1,90031
4006.021,1,89780
4011.756,1,89819
4017.487,1,89607
4023.213,1,89412
4028.934,1,89032
4034.652,1,88759
4040.364,1,88448
4046.073,1,88478
4051.777,1,88145
4057.476,1,87616
4063.171,1,87235
4068.861,1,86460
4074.547,1,86491
4080.229,1,86200
4085.906,1,85500
4091.579,1,85696
4097.247,1,85234
4102.911,1,84922
4108.571,1,84725
4114.226,1,84838
4119.877,1,84096
4125.523,1,83883
4131.165,1,83535
4136.802,1,83217
4142.435,1,82611
4148.064,1,82589
4153.689,1,81959
4159.309,1,81916
4164.924,1,81480
4170.536,1,81398
4176.143,1,81288
4181.745,1,81180
4187.343,1,80940
4192.937,1,81110
4198.527,1,80658
4204.112,1,80475
4209.693,1,80175
4215.270,1,79933
4220.842,1,79754
4226.410,1,79054
4231.974,1,78900
4237.534,1,78711
4243.089,1,78483
4248.640,1,78141
4254.186,1,78040
4259.729,1,77886
4265.267,1,77576
4270.800,1,77392
4276.330,1,77327
4281.855,1,77178
4287.376,1,76999
4292.893,1,76831
4298.405,1,76651
4303.914,1,76245
4309.418,1,76064
4314.918,1,75881
4320.413,1,75591
4325.905,1,75085
4331.392,1,74976
4336.875,1,74971
4342.354,1,74744
4347.828,1,74533
4353.299,1,74470
4358.765,1,74354
4364.227,1,74240
4369.685,1,73879
4375.138,1,73867
4380.588,1,73697
4386.033,1,73293
4391.475,1,73394
4396.912,1,73004
4402.344,1,72800
4407.773,1,72855
4413.198,1,72511
4418.618,1,72261
4424.035,1,72093
4429.447,1,72260
4434.855,1,72247
4440.259,1,71837
4445.659,1,71829
4451.055,1,71543
4456.446,1,71465
4461.834,1,71447
4467.217,1,71120
4472.597,1,70951
4477.972,1,70843
4483.343,1,70503
4488.710,1,70768
4494.073,1,70513
4499.432,1,70430
4504.787,1,70229
4510.138,1,70440
4515.485,1,70256
4520.828,1,70372
4526.167,1,70111
4531.501,1,70116
4536.832,1,69989
4542.159,1,69595
4547.481,1,69445
4552.800,1,69428
4558.115,1,69325
4563.425,1,69299
4568.732,1,69075
4574.035,1,68856
4579.333,1,68714
4584.628,1,68774
4589.918,1,69083
4595.205,1,68553
4600.488,1,68338
4605.766,1,68261
4611.041,1,68035
4616.312,1,68093
4621.579,1,67855
4626.841,1,67578
4632.100,1,67620
4637.355,1,67652
4642.606,1,67471
4647.853,1,67678
4653.096,1,67378
4658.336,1,67162
4663.571,1,67190
4668.802,1,67292
4674.030,1,67046
4679.253,1,66640
4684.473,1,66483
4689.689,1,66377
4694.900,1,66315
4700.108,1,66126
4705.312,1,66261
4710.513,1,66228
4715.709,1,66212
4720.901,1,66142
4726.090,1,66161
4731.274,1,66115
4736.455,1,65722
4741.632,1,65508
4746.805,1,65428
4751.974,1,65283
4757.140,1,65475
4762.301,1,65345
4767.459,1,65248
4772.613,1,65271
4777.763,1,65337
4782.909,1,65174
4788.052,1,64972
4793.190,1,64914
4798.325,1,64387
4803.456,1,64252
4808.583,1,64134
4813.706,1,64199
4818.826,1,64428
4823.942,1,64501
4829.054,1,64601
4834.162,1,64333
4839.266,1,64116
4844.367,1,63852
4849.464,1,63581
4854.557,1,63481
4859.646,1,63320
4864.732,1,63252
4869.814,1,63264
4874.892,1,63556
4879.966,1,63603
4885.037,1,63657
4890.104,1,63518
4895.167,1,63359
4900.226,1,63154
4905.282,1,62983
4910.334,1,62557
4915.382,1,62667
4920.427,1,62364
4925.468,1,62313
4930.505,1,62492
4935.538,1,62671
4940.568,1,62717
4945.594,1,62809
4950.616,1,62654
4955.635,1,62686
4960.650,1,62450
4965.661,1,62208
4970.669,1,62172
4975.673,1,61820
4980.673,1,61743
4985.670,1,61467
4990.663,1,61355
4995.652,1,61323
5000.638,1,61435
5005.620,1,61612
5010.598,1,61598
5015.573,1,61554
5020.544,1,61481
5025.512,1,61512
5030.476,1,61723
5035.436,1,61433
5040.393,1,61409
5045.346,1,61223
5050.295,1,61223
5055.241,1,61184
5060.183,1,60830
5065.122,1,60904
5070.057,1,60659
5074.988,1,60475
5079.916,1,60495
5084.841,1,60522
5089.761,1,60525
5094.679,1,60486
5099.592,1,60431
5104.502,1,60515
5109.409,1,60467
5114.312,1,60403
5119.211,1,60384
5124.107,1,60494
5128.999,1,60125
5133.888,1,60053
5138.773,1,59717
5143.654,1,59785
5148.533,1,59517
5153.407,1,59529
5158.278,1,59443
5163.146,1,59467
5168.010,1,59437
5172.870,1,59561
5177.727,1,59489
5182.581,1,59498
5187.431,1,59360
5192.277,1,59422
5197.120,1,59402
5201.960,1,59461
5206.796,1,59098
5211.629,1,59183
5216.458,1,58998
5221.283,1,58887
5226.106,1,58896
5230.924,1,58685
5235.739,1,58691
5240.551,1,58788
5245.360,1,58879
5250.164,1,58829
5254.966,1,58877
5259.764,1,58874
5264.558,1,58867
5269.349,1,58779
5274.137,1,58427
5278.921,1,58344
5283.702,1,58224
5288.480,1,58092
5293.254,1,57668
5298.024,1,57831
5302.791,1,58069
5307.555,1,57920
5312.315,1,58152
5317.072,1,58188
5321.826,1,58277
5326.576,1,58405
5331.323,1,58304
5336.066,1,58098
5340.806,1,57744
5345.543,1,57906
5350.276,1,57634
5355.006,1,57492
5359.733,1,57265
5364.456,1,57523
5369.175,1,57306
5373.892,1,58207
5378.605,1,60275
5383.315,1,57716
5388.021,1,58112
5392.724,1,57867
5397.424,1,57599
5402.120,1,57340
5406.813,1,57196
5411.503,1,57098
5416.189,1,56973
5420.873,1,57006
5425.552,1,56869
5430.229,1,57001
5434.902,1,56984
5439.572,1,57036
5444.238,1,57131
5448.901,1,57109
5453.561,1,57283
5458.218,1,57049
5462.871,1,57031
5467.521,1,56710
5472.168,1,56522
5476.812,1,56383
5481.452,1,56399
5486.089,1,56365
5490.723,1,56590
5495.353,1,56788
5499.980,1,56699
5504.604,1,56670
5509.225,1,56849
5513.842,1,56738
5518.456,1,56461
5523.067,1,56087
5527.675,1,56204
5532.279,1,56234
5536.881,1,55985
5541.479,1,55996
5546.073,1,56113
5550.665,1,56072
5555.253,1,56206
5559.838,1,56346
